
Chip#1
120 114 107 109 107 106 110 108 106 112 118 124 0
117 105 100 102 104 99 100 98 97 99 105 108 1
112 101 106 129 109 117 110 106 118 119 106 107 2
112 113 1206 1038 114 1456 1153 118 1251 952 112 109 3
103 106 1183 1039 116 922 691 113 641 494 108 107 4
107 106 109 129 110 111 110 110 109 118 104 104 5
103 99 1161 1391 109 603 634 113 637 640 105 101 6
102 101 1049 1194 114 516 552 109 388 394 105 103 7
102 98 105 105 104 112 114 102 114 120 100 101 8
98 95 100 101 100 675 758 98 614 714 104 97 9
103 99 103 99 100 430 478 104 309 390 106 105 10
107 105 105 102 107 106 104 106 101 109 108 15000 11
Chip#2
105 107 103 104 105 107 108 109 102 112 121 111 0
102 103 103 101 104 105 107 108 100 107 114 117 1
105 106 102 98 105 112 112 112 108 113 107 115 2
102 103 99 98 107 663 585 106 596 618 107 108 3
101 102 103 100 104 422 372 108 410 392 108 100 4
99 102 106 98 104 110 105 108 103 113 110 98 5
98 99 150 144 104 685 603 106 599 735 103 100 6
99 97 133 127 103 437 380 105 381 447 99 98 7
101 98 102 100 104 103 103 111 98 103 100 104 8
98 101 139 140 103 155 156 102 123 135 103 100 9
101 103 136 127 101 144 142 109 118 128 104 104 10
99 101 102 97 101 100 100 102 98 102 104 15000 11
Chip#3
102 100 102 95 102 119 105 97 129 98 109 115 0
103 101 102 95 95 113 101 98 114 102 109 107 1
99 98 99 97 97 119 106 102 120 104 107 110 2
102 101 104 98 99 112 113 102 124 106 109 103 3
99 97 99 94 95 104 97 95 112 98 101 102 4
105 105 110 105 100 120 113 102 121 105 104 113 5
96 97 107 99 96 113 102 98 116 97 97 102 6
103 104 101 97 96 107 101 99 108 102 104 103 7
103 107 107 136 96 116 117 105 124 101 108 118 8
96 101 107 99 96 112 109 99 110 101 109 111 9
97 101 105 97 100 116 107 98 120 102 107 106 10
99 95 101 93 95 112 98 95 114 97 108 15000 11
Chip#4
103 97 102 100 103 95 99 98 101 98 103 99 0
100 100 98 94 103 92 97 101 99 100 101 95 1
106 106 108 102 109 103 103 107 107 103 109 102 2
103 103 106 103 103 103 101 100 102 105 109 103 3
103 97 102 98 101 99 98 97 100 104 103 99 4
100 96 100 96 101 95 96 97 103 99 102 94 5
100 97 97 97 100 95 93 98 99 100 100 94 6
104 96 103 96 104 95 98 103 101 100 104 96 7
101 101 97 96 99 98 98 101 103 100 100 96 8
102 103 101 102 107 99 97 101 105 102 107 100 9
100 97 97 94 100 97 96 99 100 99 106 100 10
116 109 110 109 115 115 109 113 114 112 115 15000 11

Chip#1
116 110 103 129 106 107 108 109 102 110 118 121 0
120 113 110 129 109 111 104 106 106 113 110 121 1
107 99 105 105 106 113 109 105 113 115 102 105 2
107 112 1185 1025 118 1432 1129 117 1207 926 112 111 3
100 102 1161 1021 107 908 687 106 621 479 106 103 4
100 106 110 129 104 111 110 106 108 114 105 103 5
108 109 1174 1409 116 612 647 115 657 659 111 111 6
103 102 1065 1205 106 529 558 109 394 406 106 103 7
109 107 111 129 110 120 122 112 124 128 110 107 8
100 99 101 102 104 720 805 105 634 731 105 104 9
112 110 107 107 109 452 502 106 320 402 111 113 10
105 102 102 102 101 99 98 101 96 104 111 15000 11
Chip#2
105 102 109 101 105 108 104 108 102 109 116 110 0
107 102 109 100 104 105 107 112 102 107 113 121 1
107 107 112 104 110 118 117 112 105 116 120 115 2
99 101 102 101 105 686 606 106 604 623 107 104 3
108 105 108 102 107 436 387 115 414 400 111 105 4
101 102 106 104 107 115 109 104 103 112 106 102 5
99 103 158 149 110 702 624 108 616 761 116 105 6
98 98 135 130 105 445 387 102 391 461 102 96 7
101 102 100 105 104 108 107 105 100 106 104 102 8
108 106 150 151 105 165 163 115 132 145 110 105 9
99 101 130 126 101 141 137 106 119 126 104 100 10
102 102 108 97 103 101 105 111 97 105 111 15000 11
Chip#3
103 100 102 99 102 117 103 102 131 98 104 122 0
103 100 105 99 96 115 105 99 120 104 104 104 1
99 98 102 97 96 115 107 94 122 96 113 110 2
102 97 102 101 97 113 114 99 133 102 112 104 3
106 107 110 102 97 120 111 105 128 104 117 122 4
105 102 102 102 102 119 115 98 122 104 112 117 5
102 101 113 106 103 125 119 103 137 102 117 117 6
109 102 104 102 99 117 109 99 125 100 104 110 7
102 104 107 107 102 119 119 99 131 105 113 120 8
96 101 107 103 96 119 109 98 120 98 109 110 9
97 101 104 97 97 113 110 99 125 98 109 114 10
106 101 105 102 99 116 110 101 124 104 112 15000 11
Chip#4
100 98 98 98 98 102 94 98 103 97 104 93 0
103 103 101 100 104 102 100 103 101 105 103 102 1
101 96 98 100 95 94 96 99 98 100 102 98 2
103 100 102 104 99 98 102 101 106 107 102 101 3
100 102 103 103 103 97 98 100 100 104 106 100 4
103 101 103 105 103 99 104 99 102 104 106 100 5
110 108 104 106 104 110 104 108 107 107 112 105 6
96 97 95 93 95 95 97 95 98 97 100 94 7
104 102 102 102 106 104 102 101 103 109 108 100 8
102 103 102 104 101 98 98 103 102 103 107 99 9
112 107 103 105 108 100 104 106 103 106 110 103 10
103 102 102 103 101 102 99 103 101 100 104 15000 11

Chip#1
119 114 110 105 105 106 111 101 102 110 111 120 0
113 107 101 105 102 102 105 101 102 107 108 113 1
111 107 111 129 115 116 121 114 124 122 112 114 2
108 107 1207 1045 111 1432 1139 117 1211 931 111 105 3
104 103 1187 1044 113 911 694 108 624 487 102 100 4
107 110 114 129 111 112 114 110 114 115 108 103 5
98 101 1212 1450 106 616 658 104 667 670 100 96 6
102 102 1113 1267 107 534 576 108 406 416 105 101 7
104 106 109 113 109 112 122 112 125 127 106 101 8
109 107 106 129 113 752 839 110 654 758 110 105 9
104 101 106 102 102 464 523 104 327 411 111 111 10
108 107 106 129 107 111 110 108 105 112 115 15000 11
Chip#2
102 105 103 101 107 108 109 108 108 109 118 117 0
106 109 108 104 108 105 111 111 101 109 117 121 1
107 107 109 104 108 118 117 115 108 118 114 113 2
102 102 103 96 104 712 630 113 615 638 106 101 3
108 107 123 109 113 453 396 116 423 410 117 106 4
99 105 105 98 101 110 113 105 104 109 108 101 5
107 102 166 155 110 718 635 111 628 775 113 102 6
104 103 144 134 107 454 398 111 397 470 110 101 7
107 102 106 102 104 110 108 113 100 105 104 104 8
108 106 150 149 110 166 168 113 134 143 108 106 9
101 101 136 130 103 144 143 105 121 125 104 104 10
105 102 106 100 104 104 107 115 103 106 108 15000 11
Chip#3
100 100 96 97 92 113 105 95 125 98 107 118 0
102 102 102 98 100 116 111 102 126 101 110 118 1
100 97 99 94 90 115 105 99 121 102 106 107 2
102 100 101 101 96 108 107 95 120 101 104 115 3
105 101 102 97 99 112 105 101 124 102 113 118 4
96 100 98 99 95 119 106 97 118 98 107 113 5
96 97 105 103 95 113 109 94 120 100 108 114 6
103 105 105 103 102 113 113 99 125 104 110 113 7
100 102 102 102 96 111 114 95 124 104 109 114 8
105 100 112 101 99 116 110 99 117 102 106 114 9
99 97 104 102 97 119 114 95 129 98 115 117 10
100 91 98 95 92 109 102 91 116 98 103 15000 11
Chip#4
95 96 93 99 97 94 93 95 95 93 101 95 0
93 96 95 97 95 97 96 98 101 98 102 98 1
104 106 107 105 105 105 102 108 107 107 112 104 2
106 105 108 109 107 108 107 106 106 113 110 106 3
100 102 100 97 99 98 102 98 96 100 103 98 4
106 105 103 105 104 103 107 106 108 105 109 106 5
104 98 102 102 98 98 99 103 105 98 103 100 6
100 103 100 106 100 101 102 101 105 103 103 103 7
110 106 104 109 105 105 109 107 106 109 110 105 8
101 98 101 100 95 100 95 100 102 102 100 103 9
110 110 107 103 104 106 104 108 102 104 103 105 10
98 95 97 96 92 92 94 96 98 98 100 15000 11

Chip#1
121 116 107 107 104 104 107 102 101 114 116 121 0
120 105 101 103 106 101 104 104 97 104 105 114 1
109 98 105 110 109 119 111 108 120 119 105 105 2
111 114 1338 1153 120 1533 1218 117 1366 1057 115 109 3
104 107 1316 1153 106 976 736 106 694 529 106 97 4
104 103 109 110 104 108 113 106 109 113 100 100 5
106 105 1325 1582 114 656 698 110 696 706 105 104 6
108 111 1217 1395 118 573 618 114 431 442 110 109 7
107 105 110 129 109 122 121 110 120 133 111 111 8
107 105 106 129 107 789 884 112 721 833 110 109 9
108 102 109 111 107 496 551 113 358 451 111 116 10
104 99 105 129 107 106 104 109 102 105 112 15000 11
Chip#2
114 107 121 104 111 112 111 126 109 114 124 119 0
108 107 111 108 110 107 111 116 101 116 121 122 1
108 109 120 100 110 120 116 120 112 112 114 118 2
107 106 117 104 113 743 663 130 669 707 114 108 3
115 111 127 109 117 473 420 122 478 449 118 110 4
111 111 127 106 113 115 120 120 108 120 124 108 5
111 110 169 159 113 758 669 127 656 810 120 110 6
108 110 151 138 108 478 416 122 409 491 118 105 7
102 103 109 98 107 104 109 112 100 103 110 104 8
109 106 157 152 110 159 165 119 130 141 117 106 9
111 109 147 139 110 154 153 122 125 136 116 110 10
107 103 115 104 105 107 108 113 104 107 113 15000 11
Chip#3
102 97 104 136 96 117 113 99 133 101 110 121 0
108 101 104 99 96 117 110 101 124 101 112 118 1
100 101 99 98 95 119 110 102 125 98 112 113 2
99 101 104 95 105 122 115 98 129 98 108 113 3
102 101 107 103 100 112 110 105 128 100 113 124 4
100 101 105 105 99 119 111 98 124 101 109 113 5
108 100 110 103 102 124 117 105 133 101 110 117 6
100 100 102 101 99 117 107 99 120 97 109 113 7
100 104 104 101 99 115 117 98 127 98 108 117 8
103 97 108 99 95 120 106 98 117 98 115 115 9
102 100 101 97 99 120 114 99 131 96 109 114 10
99 98 101 101 99 119 109 97 124 102 119 15000 11
Chip#4
103 105 104 104 103 95 100 103 106 105 104 99 0
100 97 95 98 98 95 96 98 99 98 104 98 1
102 101 106 102 105 99 97 103 106 103 106 104 2
99 98 98 96 101 98 97 98 102 97 106 94 3
104 101 104 103 98 103 99 104 109 104 107 102 4
108 106 106 105 104 103 99 103 109 106 109 102 5
103 107 107 102 101 103 101 106 108 109 108 101 6
106 105 104 106 107 105 103 107 113 106 112 103 7
107 106 103 104 110 103 101 106 107 109 109 102 8
98 95 101 97 95 93 95 98 103 102 102 95 9
106 102 104 106 101 104 104 106 107 104 102 101 10
100 102 101 104 99 99 97 99 110 105 107 15000 11

Chip#1
119 114 110 105 102 102 103 105 102 107 115 122 0
125 109 106 105 105 106 107 106 106 110 112 118 1
109 104 107 106 104 115 109 105 112 114 102 103 2
111 112 1385 1189 116 1646 1303 118 1416 1101 111 104 3
113 113 1371 1204 116 1054 795 114 723 553 111 109 4
104 109 117 114 113 112 114 112 113 118 109 104 5
103 107 1346 1617 118 694 746 113 720 733 108 105 6
102 102 1229 1425 115 597 644 113 432 447 110 104 7
95 95 102 103 101 108 113 101 116 123 102 95 8
99 94 99 98 104 803 896 102 723 845 110 97 9
108 103 101 106 104 512 558 110 356 457 109 108 10
102 102 101 102 101 106 104 102 100 102 110 15000 11
Chip#2
105 98 111 97 104 104 105 113 100 113 117 110 0
102 99 103 97 101 103 107 111 100 106 116 115 1
109 113 112 108 111 117 123 122 117 117 112 117 2
111 107 115 108 117 780 687 120 692 733 113 113 3
106 102 114 100 108 477 417 116 478 447 110 102 4
102 103 112 97 103 110 107 109 103 112 107 100 5
105 105 166 152 113 808 708 117 673 831 116 105 6
107 102 152 138 110 517 444 112 423 505 111 102 7
104 101 109 104 108 105 104 112 101 107 108 102 8
109 107 152 149 110 169 169 119 132 148 113 105 9
101 102 139 130 100 144 143 113 118 135 106 105 10
111 103 114 100 105 108 107 118 104 113 113 15000 11
Chip#3
106 100 104 98 100 121 106 102 127 100 113 125 0
106 102 101 99 100 111 103 101 116 100 106 109 1
103 102 105 103 102 124 110 101 131 104 120 117 2
108 105 105 105 106 128 118 103 135 104 117 121 3
105 102 110 102 103 116 106 99 120 104 115 118 4
106 104 105 106 108 127 117 106 130 101 116 124 5
105 101 113 106 108 127 115 102 134 102 116 117 6
105 107 107 105 108 127 114 102 130 104 116 115 7
105 102 107 107 102 119 118 102 134 105 116 121 8
107 104 116 110 108 127 123 108 134 105 123 128 9
103 107 105 102 108 124 113 102 133 101 117 121 10
105 100 102 98 100 120 106 101 121 104 115 15000 11
Chip#4
99 98 100 102 100 99 98 98 101 100 97 99 0
99 102 101 104 98 98 99 104 100 99 102 100 1
101 101 97 98 98 98 93 98 101 97 101 92 2
98 98 93 96 95 89 98 96 95 98 98 94 3
99 97 96 93 100 93 94 95 98 93 101 93 4
103 98 96 100 99 94 98 99 98 98 103 98 5
96 100 97 98 94 97 95 100 103 100 98 96 6
96 98 98 96 97 93 97 95 96 97 101 96 7
107 108 106 109 105 106 102 105 110 109 115 107 8
108 103 107 109 106 106 105 104 109 106 109 105 9
104 101 101 100 100 100 100 101 102 104 102 100 10
108 102 107 111 104 106 101 105 108 104 114 15000 11

Chip#1
116 109 102 98 96 99 99 97 93 105 112 114 0
125 117 105 129 110 107 103 105 102 110 112 120 1
109 103 107 109 109 120 114 105 120 119 101 105 2
115 118 1401 1201 116 1660 1311 118 1441 1112 116 112 3
105 109 1375 1200 114 1062 796 108 733 555 110 103 4
103 110 111 129 113 113 116 105 116 118 106 100 5
99 105 1352 1622 107 694 733 105 725 728 102 101 6
108 109 1243 1419 119 600 647 116 446 452 110 97 7
111 110 113 114 115 121 125 112 125 129 109 108 8
105 103 103 107 105 812 916 106 738 861 112 104 9
107 105 109 129 107 512 565 110 363 461 110 112 10
105 105 105 103 106 107 104 106 98 108 112 15000 11
Chip#2
105 103 105 102 105 104 101 115 102 107 117 110 0
104 103 105 102 103 103 104 111 98 106 116 115 1
102 103 108 97 105 111 112 111 109 109 110 110 2
102 102 105 96 108 782 681 111 692 730 106 104 3
108 109 114 104 108 486 426 116 478 459 112 104 4
111 107 124 106 111 112 113 113 109 114 113 102 5
109 109 176 159 115 811 710 119 682 844 116 106 6
105 107 151 135 110 514 439 119 426 505 112 105 7
102 102 106 97 104 105 101 109 102 105 106 98 8
104 105 158 149 110 169 173 112 138 145 111 105 9
107 105 141 136 105 145 147 116 126 136 108 104 10
108 107 111 104 104 107 108 117 104 103 112 15000 11
Chip#3
99 97 101 99 100 117 109 97 129 101 115 122 0
106 104 104 97 103 125 114 103 129 105 117 121 1
102 98 101 97 94 117 106 94 125 100 122 113 2
100 102 101 105 106 121 121 105 137 106 116 118 3
97 95 99 97 103 119 110 99 126 100 113 117 4
97 98 104 101 99 127 114 102 126 101 116 122 5
110 101 118 105 111 124 113 102 121 108 115 110 6
106 102 105 98 103 119 107 105 121 101 108 111 7
99 98 107 101 99 116 122 102 133 102 112 122 8
106 104 108 105 108 131 117 102 129 102 122 124 9
102 100 101 101 100 123 118 97 137 101 120 118 10
102 92 101 95 92 117 106 97 120 98 110 15000 11
Chip#4
100 100 101 103 103 100 99 98 103 100 103 99 0
104 107 107 105 104 103 103 103 105 107 108 103 1
103 100 103 98 101 103 98 100 107 102 104 96 2
116 112 114 112 118 116 113 115 120 119 121 114 3
99 105 101 102 103 102 98 99 105 104 107 100 4
96 98 96 98 97 91 95 97 98 99 98 91 5
108 117 113 115 111 109 111 111 117 114 114 106 6
107 111 106 110 107 108 104 104 110 105 110 105 7
98 98 101 99 103 100 97 97 101 104 101 93 8
90 90 92 92 88 87 88 84 94 92 94 89 9
106 105 110 107 104 104 104 106 110 105 109 105 10
108 103 107 106 105 102 99 104 106 105 107 15000 11

Chip#1
126 121 114 129 115 110 113 113 109 117 126 132 0
121 110 105 129 106 103 102 105 104 107 116 117 1
111 106 111 129 106 121 111 109 120 125 109 108 2
108 107 1405 1204 122 1668 1321 118 1458 1129 111 104 3
113 118 1392 1219 120 1068 807 118 747 568 118 114 4
108 109 114 129 111 111 111 112 113 120 110 107 5
111 113 1372 1643 116 707 752 117 747 747 115 108 6
109 109 1259 1433 111 597 650 109 445 458 112 107 7
104 103 106 129 110 115 119 110 122 130 108 103 8
103 102 106 106 113 820 924 110 747 868 109 104 9
109 105 102 105 106 512 565 106 364 463 116 112 10
105 105 106 105 106 107 105 106 104 109 115 15000 11
Chip#2
107 105 108 97 101 103 107 116 102 109 117 114 0
108 105 109 102 107 105 108 109 102 109 120 122 1
112 110 108 104 111 114 117 118 117 117 117 124 2
105 103 106 96 101 787 690 111 700 748 103 108 3
101 95 100 97 95 478 417 106 437 452 103 96 4
104 105 109 104 101 115 109 111 106 114 112 105 5
101 99 164 155 108 811 704 112 681 835 108 102 6
104 101 147 136 110 517 438 109 422 511 110 101 7
109 109 111 104 108 107 113 113 102 112 110 106 8
107 103 160 152 111 173 174 120 138 145 116 105 9
109 102 148 134 107 151 156 115 126 140 111 106 10
101 101 105 93 98 96 99 108 97 102 104 15000 11
Chip#3
103 102 105 102 105 125 114 99 131 104 112 124 0
109 102 107 105 105 125 118 102 126 106 120 118 1
105 102 101 136 102 128 113 101 129 106 115 107 2
107 105 110 136 103 121 122 103 135 105 108 114 3
99 100 99 99 102 121 111 101 125 98 115 118 4
102 101 104 101 100 117 110 95 122 100 110 111 5
105 104 113 106 102 127 118 103 129 104 116 114 6
109 108 107 105 111 123 117 103 129 107 122 124 7
107 104 107 109 108 115 115 101 131 104 108 117 8
99 100 107 103 99 121 114 97 124 98 110 118 9
100 98 101 102 100 125 113 98 125 98 116 109 10
105 98 102 98 97 120 110 99 121 97 112 15000 11
Chip#4
99 100 101 98 101 93 97 97 99 97 98 95 0
100 105 103 102 99 102 100 103 102 104 104 101 1
106 102 103 99 101 99 101 103 103 105 109 99 2
101 97 102 94 95 92 95 97 99 98 97 92 3
108 110 108 110 105 102 102 105 110 109 109 106 4
107 102 108 105 103 100 100 105 105 105 110 104 5
101 105 104 104 103 100 102 101 105 103 107 102 6
103 102 103 102 105 95 98 99 105 103 101 99 7
111 106 108 106 109 105 108 112 109 113 116 105 8
103 100 109 106 104 100 100 104 109 109 108 99 9
109 108 113 106 111 106 103 106 109 105 107 106 10
109 108 110 105 106 104 101 107 108 106 107 15000 11

Chip#1
117 121 107 107 109 104 108 106 102 113 118 122 0
124 116 102 106 102 106 107 108 102 104 112 114 1
117 118 123 129 114 124 122 115 125 129 116 112 2
108 114 1417 1210 120 1674 1331 122 1462 1137 111 112 3
104 110 1394 1224 116 1073 805 113 747 563 111 103 4
103 107 115 129 110 113 110 110 114 115 106 101 5
107 106 1369 1647 118 701 749 114 737 751 111 103 6
107 112 1258 1437 116 607 658 113 445 461 109 104 7
104 106 115 129 113 121 122 114 117 130 110 103 8
102 103 101 129 109 825 929 102 747 870 109 100 9
104 106 101 107 107 512 578 109 362 473 108 113 10
105 102 107 101 104 103 104 101 100 105 112 15000 11
Chip#2
102 103 109 98 104 98 100 111 101 109 114 113 0
107 101 103 101 104 104 104 111 102 107 116 117 1
111 106 109 105 108 119 115 120 110 116 114 118 2
107 101 105 100 105 785 684 118 699 741 110 106 3
104 107 112 102 108 488 427 116 487 458 111 106 4
99 102 108 98 105 110 109 108 105 112 111 101 5
108 107 167 164 111 814 704 119 682 836 113 106 6
101 103 151 138 108 519 440 111 432 512 110 104 7
104 103 103 104 110 110 105 113 104 107 108 104 8
104 101 148 147 103 166 171 106 131 144 107 98 9
111 106 150 144 104 151 152 117 131 137 111 106 10
104 105 112 102 107 105 107 111 106 110 112 15000 11
Chip#3
103 101 104 99 106 117 105 99 130 102 116 120 0
105 100 104 101 105 117 115 102 127 104 117 117 1
105 105 102 97 102 120 114 102 131 102 113 119 2
107 105 110 109 105 123 122 101 131 106 117 115 3
102 100 102 101 97 121 113 101 125 98 116 122 4
109 105 110 107 105 130 119 106 128 101 115 118 5
102 100 112 136 103 116 115 101 130 104 112 110 6
106 104 112 105 109 123 118 105 131 104 116 115 7
105 100 105 105 103 119 123 101 133 104 116 118 8
105 108 116 107 103 124 121 105 126 104 120 117 9
103 100 105 105 103 116 118 98 134 102 117 117 10
109 102 105 103 112 123 117 102 129 106 116 15000 11
Chip#4
96 101 96 97 97 93 95 97 98 98 100 96 0
100 102 103 99 100 98 98 98 102 104 103 99 1
98 94 96 96 97 91 94 94 100 96 100 98 2
111 113 113 110 112 111 109 112 114 117 113 107 3
101 106 103 103 103 99 100 104 103 105 104 101 4
100 96 101 94 100 97 97 98 101 102 98 98 5
100 101 101 99 100 102 100 101 105 107 102 101 6
101 98 98 98 95 97 96 97 106 99 97 96 7
104 103 106 100 100 99 99 103 103 103 106 102 8
101 102 101 102 98 102 98 104 105 106 101 104 9
100 100 102 100 101 97 98 99 102 103 103 104 10
100 100 102 99 99 99 98 98 103 100 106 15000 11

Chip#1
115 118 110 106 105 107 105 106 104 110 115 124 0
124 112 110 109 104 104 104 109 102 109 110 116 1
112 105 111 129 107 121 116 112 125 127 115 107 2
111 112 1417 1217 116 1675 1327 119 1467 1144 112 105 3
102 107 1401 1217 115 1072 807 114 749 566 106 101 4
108 112 114 129 113 113 113 113 116 118 110 107 5
111 113 1372 1665 120 720 748 115 747 753 114 103 6
105 112 1261 1444 113 607 657 114 446 467 109 108 7
103 106 109 113 113 117 122 112 124 130 108 108 8
102 104 105 105 111 829 931 112 749 879 114 105 9
104 101 102 99 101 512 572 100 362 466 105 105 10
103 105 103 129 109 104 104 102 100 107 108 15000 11
Chip#2
109 106 105 100 105 105 108 111 103 106 116 111 0
112 105 109 104 107 110 112 115 101 110 118 124 1
105 99 109 101 104 110 112 111 108 110 111 113 2
101 101 105 100 107 790 687 113 701 748 110 106 3
111 105 112 100 107 491 428 115 478 463 113 106 4
111 106 117 102 105 114 109 113 105 114 112 105 5
109 102 167 160 110 816 709 116 681 846 117 105 6
108 106 152 146 110 522 444 113 433 512 113 106 7
118 110 114 109 113 115 116 120 106 114 116 113 8
109 101 155 153 105 169 174 116 134 147 114 104 9
109 110 150 142 110 152 153 116 126 141 111 111 10
104 97 109 101 101 105 101 108 96 101 104 15000 11
Chip#3
102 105 102 97 100 115 103 102 125 102 106 111 0
109 100 104 95 97 120 111 105 130 102 115 117 1
97 98 102 95 97 112 101 99 120 102 104 104 2
107 102 104 103 105 123 119 101 137 106 108 113 3
102 94 101 95 93 113 102 93 113 93 101 103 4
103 101 104 136 105 124 110 105 129 104 108 121 5
99 91 102 95 92 113 102 90 121 92 103 102 6
107 107 110 99 99 117 113 103 125 104 107 113 7
103 102 102 107 102 111 117 103 129 98 112 115 8
102 104 108 102 99 124 115 103 130 98 119 114 9
99 97 105 97 96 116 110 95 126 97 108 110 10
103 101 110 99 96 116 107 101 122 100 112 15000 11
Chip#4
106 107 104 106 104 99 104 104 107 103 106 101 0
101 102 102 99 100 99 98 98 99 105 106 101 1
96 98 97 100 100 102 98 97 100 98 103 98 2
104 96 101 100 101 98 99 97 102 103 106 102 3
109 107 113 109 109 109 111 112 113 109 110 114 4
104 103 106 106 104 103 105 106 108 106 109 106 5
99 100 106 99 100 99 100 99 102 103 100 101 6
108 112 109 107 106 108 108 109 108 111 112 109 7
102 98 103 100 98 102 102 103 100 106 100 101 8
106 102 109 105 106 109 104 104 108 106 110 104 9
112 108 110 106 106 104 104 105 109 110 112 104 10
101 95 100 96 94 100 96 98 99 100 100 15000 11

Chip#1
117 117 105 107 109 104 104 108 101 110 115 125 0
119 109 100 103 104 103 103 104 104 104 102 113 1
108 105 107 106 109 116 114 108 124 123 106 105 2
99 106 1423 1221 111 1684 1334 112 1474 1150 106 97 3
104 109 1415 1232 114 1079 808 116 756 574 109 104 4
109 117 122 129 118 121 117 112 118 123 110 109 5
108 111 1379 1665 122 720 758 115 747 755 111 111 6
104 110 1270 1450 119 611 661 113 447 467 109 107 7
99 103 102 109 105 113 117 109 121 124 105 101 8
100 105 100 103 107 829 930 106 746 878 108 104 9
107 103 103 103 105 513 576 104 365 471 108 109 10
105 107 105 103 106 106 109 104 100 107 111 15000 11
Chip#2
101 102 100 97 98 100 100 106 98 106 108 110 0
108 103 106 98 105 108 105 113 101 110 117 123 1
105 107 117 105 111 112 113 112 109 112 113 114 2
101 103 105 96 107 793 692 109 702 750 106 104 3
102 103 106 98 105 487 426 111 478 461 103 102 4
104 109 106 109 110 117 115 111 108 117 107 106 5
107 106 174 164 107 816 703 115 684 841 118 106 6
107 107 155 143 110 518 442 111 430 516 112 104 7
105 103 108 100 104 107 107 111 97 109 107 100 8
106 106 161 155 111 172 176 115 138 151 113 110 9
98 105 138 132 103 145 143 108 121 131 102 100 10
102 102 111 100 101 101 104 115 102 109 108 15000 11
Chip#3
99 97 96 99 93 116 102 93 131 98 109 111 0
109 105 110 136 100 124 114 105 134 107 120 119 1
105 105 107 98 105 127 114 102 129 102 115 117 2
105 105 107 103 103 125 119 105 134 102 110 114 3
102 95 98 101 102 121 105 99 124 97 117 118 4
102 102 104 101 103 128 111 108 126 101 113 118 5
105 104 110 103 103 121 115 101 133 101 109 110 6
107 102 110 102 105 124 113 103 127 102 115 119 7
103 101 107 101 99 113 114 106 127 101 110 125 8
107 107 112 106 97 130 119 106 130 104 117 122 9
110 111 108 109 109 140 123 109 141 107 126 124 10
103 101 105 99 100 125 115 101 131 98 117 15000 11
Chip#4
95 92 90 87 89 89 92 90 92 93 95 89 0
96 94 92 96 94 92 97 96 99 97 102 100 1
99 95 102 97 95 98 98 98 99 98 102 101 2
106 98 106 102 98 100 98 101 105 103 103 101 3
109 100 104 105 103 105 104 100 101 105 104 105 4
103 96 101 100 101 99 100 101 103 103 104 101 5
102 98 103 98 98 98 98 104 96 102 103 99 6
102 101 104 102 104 102 101 103 100 105 102 101 7
102 101 103 102 104 100 102 101 102 103 106 99 8
104 98 101 102 103 103 99 103 105 100 109 101 9
104 96 102 102 103 103 98 101 106 104 103 100 10
100 97 100 96 97 97 96 100 100 97 102 15000 11
